Comment:    Automatically converted from EXFOR
            by IAEA-NDS EXFOR Web-Retrieval System (v-2008/11/03)
            "Mechanism of the 7Li(p,alpha)4He reaction"
            N.Sarma, K.S.Jayaraman, C.K.Kumar
            EXFOR: A1473002    Created: 1981-06-07  Updated: 1999-05-05
            X4Reaction:3-LI-7(P,A)2-HE-4,,DA,,,EXP; X4Points:414

Version:      R33
X4Number:     A1473002
Source:       N.Sarma+(1963), Jour. Nuclear Physics, Vol.44, Issue.2, p.205
Reaction:     7Li(p,a0)4He
Distribution: Energy
Sigfactors:   1.00, 0.00
Enfactors:    1.00, 0.00, 0.00, 0.00
Units:        mb
Composition:
Masses:       1.0, 7.0, 4.0, 4.0
Zeds:         1, 3, 2, 2
Qvalue:       17347.28, 0.00, 0.00, 0.00, 0.00
Theta:        100
Data:
 2856.00,    10.00,    2.559,   0.0937
 2876.00,    10.00,     2.63,   0.0234
 2886.00,    10.00,    2.537,   0.0234
 2915.00,    10.00,    2.631,   0.1406
 2945.00,    10.00,    2.679,   0.0234
 2964.00,    10.00,    2.773,   0.0234
 2984.00,    10.00,    2.821,   0.0234
 3004.00,    10.00,    2.821,   0.0234
 3014.00,    10.00,    2.728,   0.0234
 3034.00,    10.00,    2.705,   0.0234
 3064.00,    10.00,    2.659,   0.0234
 3094.00,    10.00,    2.613,   0.0234
 3114.00,    10.00,    2.707,   0.0234
 3143.00,    10.00,    2.755,   0.1406
 3173.00,    10.00,    2.662,   0.0234
 3183.00,    10.00,    2.592,   0.0234
 3204.00,    10.00,    2.545,   0.0234
 3215.00,    10.00,    2.264,   0.0234
 3243.00,    10.00,    2.476,   0.0234
 3254.00,    10.00,    2.383,   0.0234
 3283.00,    10.00,    2.454,   0.0234
 3294.00,    10.00,     2.29,   0.0234
 3314.00,    10.00,    2.244,   0.1172
 3333.00,    10.00,    2.315,   0.0234
 3344.00,    10.00,    2.198,   0.0234
 3373.00,    10.00,    2.245,   0.0234
 3394.00,    10.00,    1.965,   0.0234
 3404.00,    10.00,    2.129,   0.0234
 3414.00,    10.00,    1.989,   0.0234
 3434.00,    10.00,     2.06,   0.0234
 3464.00,    10.00,    2.014,   0.0234
 3474.00,    10.00,     1.92,   0.0234
 3494.00,    10.00,    1.827,   0.0234
 3514.00,    10.00,    1.827,   0.1172
 3534.00,    10.00,    1.711,   0.0234
 3555.00,    10.00,    1.759,   0.0234
 3564.00,    10.00,    1.641,   0.0234
 3565.00,    10.00,    1.618,   0.0234
 3584.00,    10.00,    1.665,   0.0234
 3604.00,    10.00,    1.619,   0.0234
 3615.00,    10.00,    1.455,   0.0234
 3635.00,    10.00,    1.386,   0.0234
 3655.00,    10.00,     1.48,   0.0234
 3694.00,    10.00,    1.411,   0.0234
 3715.00,    10.00,    1.153,   0.0234
 3735.00,    10.00,    1.295,   0.0234
 3754.00,    10.00,    1.365,   0.0234
 3775.00,    10.00,    1.179,   0.0234
 3785.00,    10.00,    1.132,   0.0234
 3805.00,    10.00,    1.132,   0.0234
 3834.00,    10.00,    1.157,   0.0234
 3845.00,    10.00,    1.016,   0.0234
 3865.00,    10.00,   0.9701,   0.0234
 3895.00,    10.00,   0.9241,   0.0234
 3925.00,    10.00,   0.8781,   0.1172
 3945.00,    10.00,    0.902,   0.0234
 3955.00,    10.00,    0.832,   0.0234
 3985.00,    10.00,    0.786,   0.0234
 3995.00,    10.00,    0.716,   0.0234
 4015.00,    10.00,   0.6462,   0.0234
 4035.00,    10.00,   0.7639,   0.0234
 4045.00,    10.00,   0.5533,   0.0234
 4075.00,    10.00,   0.6479,   0.0234
 4095.00,    10.00,   0.5781,   0.0234
 4105.00,    10.00,    0.555,   0.0234
 4144.00,    10.00,   0.6029,   0.0234
 4145.00,    10.00,   0.4623,   0.0234
 4174.00,    10.00,   0.5569,   0.0234
 4205.00,    10.00,   0.2531,   0.0234
 4235.00,    10.00,   0.3945,   0.0234
 4254.00,    10.00,   0.4185,   0.0234
 4274.00,    10.00,   0.3488,   0.0234
 4294.00,    10.00,   0.4196,   0.0234
 4304.00,    10.00,    0.373,   0.0234
 4324.00,    10.00,   0.3501,   0.0234
 4344.00,    10.00,   0.2804,   0.0234
 4364.00,    10.00,   0.3981,   0.0234
 4374.00,    10.00,   0.3047,   0.0234
 4384.00,    10.00,   0.2346,   0.0234
 4414.00,    10.00,   0.2823,   0.0234
 4434.00,    10.00,   0.1657,   0.0234
 4453.00,    10.00,   0.2834,   0.0234
 4464.00,    10.00,   0.1197,   0.0234
 4483.00,    10.00,   0.2374,   0.0234
 4503.00,    10.00,   0.1911,   0.0234
 4523.00,    10.00,   0.1213,   0.0234
 4543.00,    10.00,   0.1922,   0.0234
 4553.00,    10.00,    0.169,   0.0234
 4573.00,    10.00,    0.193,   0.0234
 4593.00,    10.00,   0.1233,   0.0234
 4613.00,    10.00,   0.1004,   0.0234
 4633.00,    10.00,   0.1244,   0.0234
 4642.00,    10.00,   0.1247,   0.0234
 4653.00,    10.00,   0.0781,   0.0234
 4672.00,    10.00,   0.0786,   0.0234
 4682.00,    10.00,   0.1258,   0.0234
 4712.00,    10.00,   0.1032,   0.0234
 4722.00,    10.00,   0.0566,   0.0234
 4732.00,    10.00,   0.1037,   0.0234
 4752.00,    10.00,   0.0574,   0.0234
 4772.00,    10.00,   0.1048,   0.0234
 4801.00,    10.00,   0.0822,   0.0234
 4811.00,    10.00,   0.0356,   0.0234
 4831.00,    10.00,   0.0831,   0.0234
 4861.00,    10.00,   0.1073,   0.0234
 4871.00,    10.00,    0.131,   0.0234
 4891.00,    10.00,   0.0613,   0.0234
 4911.00,    10.00,   0.0619,   0.0234
 4930.00,    10.00,   0.1093,   0.0234
 4950.00,    10.00,   0.1098,   0.0234
 4960.00,    10.00,   0.0632,   0.0234
 4980.00,    10.00,   0.1107,   0.0234
 5009.00,    10.00,   0.1349,   0.0234
 5019.00,    10.00,   0.2055,   0.0234
 5039.00,    10.00,   0.1826,   0.0234
 5059.00,    10.00,   0.1363,   0.0234
 5079.00,    10.00,   0.2072,   0.0234
 5098.00,    10.00,   0.2546,   0.0234
 5118.00,    10.00,   0.2551,   0.0234
 5128.00,    10.00,   0.2789,   0.0234
 5137.00,    10.00,   0.3729,   0.0234
 5167.00,    10.00,   0.4206,   0.0234
 5187.00,    10.00,   0.4446,   0.0234
 5196.00,    10.00,   0.4917,   0.0234
 5217.00,    10.00,    0.422,   0.0234
 5246.00,    10.00,   0.4931,   0.0234
 5265.00,    10.00,   0.6108,   0.0234
 5275.00,    10.00,    0.658,   0.0234
 5285.00,    10.00,   0.7286,   0.0234
 5314.00,    10.00,   0.7997,   0.0234
 5334.00,    10.00,   0.7534,   0.0234
 5358.00,    10.00,    0.848,   0.0935
 5373.00,    10.00,   0.9185,   0.0234
 5403.00,    10.00,   0.9428,   0.0234
EndData:

